# dimensionless total [l(l+1)/2pi] C_l's
# for l=2 to 2500, i.e. number of multipoles equal to 2499
#
# -> if you prefer output in CAMB/HealPix/LensPix units/order, set 'format' to 'camb' in input file
# -> if you don't want to see such a header, set 'headers' to 'no' in input file
# -> for CMB lensing (phi), these are C_l^phi-phi for the lensing potential.
#    Remember the conversion factors:
#    C_l^dd (deflection) = l(l+1) C_l^phi-phi
#    C_l^gg (shear/convergence) = 1/4 (l(l+1))^2 C_l^phi-phi
#
# 1:l     2:TT                     3:EE                     4:TE                     5:BB                     6:phiphi                 7:TPhi                   8:Ephi               
    2       1.494400670367e-10       7.315014685097e-15       4.820652221288e-13       0.000000000000e+00       8.899419975913e-09       4.879163264452e-10      -2.513521006646e-12 
    3       1.408251725703e-10       1.238630663934e-14       6.064280824270e-13       0.000000000000e+00       5.433465714317e-09       3.466933385733e-10      -2.211231682349e-12 
    4       1.323523491542e-10       1.446279497863e-14       6.273192576634e-13       0.000000000000e+00       3.759400120513e-09       2.634453840204e-10      -1.764012674909e-12 
    5       1.256418808802e-10       1.337607591256e-14       5.875004412050e-13       0.000000000000e+00       2.796800778709e-09       2.088165246049e-10      -1.309402790759e-12 
    6       1.206979069142e-10       1.032145575712e-14       5.169917378357e-13       0.000000000000e+00       2.178874437084e-09       1.703710849381e-10      -8.948042630790e-13 
    7       1.172229778342e-10       6.840660771588e-15       4.361972276489e-13       0.000000000000e+00       1.753748104942e-09       1.420123510539e-10      -5.443789053664e-13 
    8       1.148976619679e-10       4.041842082405e-15       3.573947762677e-13       0.000000000000e+00       1.446445753282e-09       1.203536974887e-10      -2.689073205247e-13 
    9       1.134772711187e-10       2.335977676041e-15       2.878531187851e-13       0.000000000000e+00       1.215770120634e-09       1.033605812359e-10      -7.004096249979e-14 
   10       1.127470414837e-10       1.571349940471e-15       2.316282078888e-13       0.000000000000e+00       1.037458648280e-09       8.977026501678e-11       5.752364037345e-14 
   11       1.125676906230e-10       1.345705105617e-15       1.904230670621e-13       0.000000000000e+00       8.886884152861e-10       7.950670854321e-11       1.233840830821e-13 
   12       1.128296092145e-10       1.288231322754e-15       1.639402201762e-13       0.000000000000e+00       7.765260433784e-10       7.028322649791e-11       1.421785237315e-13 
   13       1.134136504930e-10       1.200665322555e-15       1.504277818117e-13       0.000000000000e+00       6.844542136951e-10       6.274588428767e-11       1.277247710995e-13 
   14       1.142211048300e-10       1.054802859835e-15       1.473131056129e-13       0.000000000000e+00       6.078483108835e-10       5.621002786690e-11       9.278648077484e-14 
   15       1.152584211403e-10       9.105622096600e-16       1.515845766152e-13       0.000000000000e+00       5.433668952480e-10       5.074861837023e-11       4.960475672944e-14 
   16       1.164856096530e-10       8.294043491144e-16       1.602140146468e-13       0.000000000000e+00       4.885428475677e-10       4.611848208758e-11       7.263402407568e-15 
   17       1.178217269248e-10       8.287636804157e-16       1.706831042967e-13       0.000000000000e+00       4.415128190629e-10       4.212087925297e-11      -2.790442326805e-14 
   18       1.192597818766e-10       8.835308149371e-16       1.812282105640e-13       0.000000000000e+00       4.008474900967e-10       3.859187555738e-11      -5.238560321769e-14 
   19       1.208351286852e-10       9.539832303179e-16       1.906848013402e-13       0.000000000000e+00       3.654346717577e-10       3.544120785459e-11      -6.516286039517e-14 
   20       1.224799181726e-10       1.013987778905e-15       1.984653969107e-13       0.000000000000e+00       3.343992422967e-10       3.267525337971e-11      -6.707329949022e-14 
   21       1.241724145635e-10       1.062753006561e-15       2.046469618897e-13       0.000000000000e+00       3.070430068362e-10       3.022842728933e-11      -6.045159361433e-14 
   22       1.259789167492e-10       1.118695865429e-15       2.095774646601e-13       0.000000000000e+00       2.828033205365e-10       2.802775492686e-11      -4.836112074295e-14 
   23       1.278012191783e-10       1.204620860143e-15       2.137733616215e-13       0.000000000000e+00       2.612221309946e-10       2.601663519129e-11      -3.403743971075e-14 
   24       1.296975330366e-10       1.335005183429e-15       2.177883284977e-13       0.000000000000e+00       2.419238467650e-10       2.417502735327e-11      -2.038777039054e-14 
   25       1.316088270225e-10       1.511825167105e-15       2.221298273338e-13       0.000000000000e+00       2.245975175869e-10       2.254217842818e-11      -9.406094756371e-15 
   26       1.335790383127e-10       1.728462158419e-15       2.271738415344e-13       0.000000000000e+00       2.089836681704e-10       2.109240486613e-11      -2.291732527542e-15 
   27       1.356331777289e-10       1.976634403770e-15       2.328661711033e-13       0.000000000000e+00       1.948644132959e-10       1.977445861354e-11       6.364802102379e-16 
   28       1.376257052409e-10       2.251561221767e-15       2.391433448596e-13       0.000000000000e+00       1.820554482031e-10       1.855773043060e-11      -1.927827581689e-16 
   29       1.397308382525e-10       2.553060936736e-15       2.456693644351e-13       0.000000000000e+00       1.704001864412e-10       1.745364381220e-11      -3.810632494123e-15 
   30       1.418205342173e-10       2.882402184956e-15       2.520387513270e-13       0.000000000000e+00       1.597647859210e-10       1.644880707948e-11      -9.171894050102e-15 
   31       1.439326199547e-10       3.239104327338e-15       2.579357045995e-13       0.000000000000e+00       1.500359754043e-10       1.552044606282e-11      -1.513286143270e-14 
   32       1.461635796289e-10       3.620812179879e-15       2.625612451514e-13       0.000000000000e+00       1.411144552071e-10       1.468657187803e-11      -2.022600157460e-14 
   33       1.483002952006e-10       4.024433848315e-15       2.656153930773e-13       0.000000000000e+00       1.329139844107e-10       1.391815181249e-11      -2.358210076567e-14 
   34       1.505389348665e-10       4.448122287373e-15       2.669503915087e-13       0.000000000000e+00       1.253592395490e-10       1.320125470354e-11      -2.482513705461e-14 
   35       1.528091947920e-10       4.892966565778e-15       2.662449157349e-13       0.000000000000e+00       1.183861959998e-10       1.248541818881e-11      -2.450869729812e-14 
   36       1.550201470019e-10       5.362914079682e-15       2.638057510729e-13       0.000000000000e+00       1.119377648016e-10       1.185444265653e-11      -2.233480999506e-14 
   37       1.573711578506e-10       5.863400177925e-15       2.596274746231e-13       0.000000000000e+00       1.059629182363e-10       1.129644591703e-11      -1.878742762978e-14 
   38       1.596826670653e-10       6.399173955287e-15       2.537375164032e-13       0.000000000000e+00       1.004169158728e-10       1.074821676082e-11      -1.495443737458e-14 
   39       1.620062644285e-10       6.973031411179e-15       2.465534262958e-13       0.000000000000e+00       9.526170451302e-11       1.021774267542e-11      -1.144656683380e-14 
   40       1.644272502267e-10       7.585745725074e-15       2.379994176919e-13       0.000000000000e+00       9.046159720359e-11       9.749584168406e-12      -8.354496563628e-15 
   41       1.667718171777e-10       8.236657003707e-15       2.283034644917e-13       0.000000000000e+00       8.598491233696e-11       9.316674774039e-12      -6.283146699508e-15 
   42       1.691969275456e-10       8.924599993772e-15       2.177490104568e-13       0.000000000000e+00       8.180491879166e-11       8.887425096498e-12      -5.725876075986e-15 
   43       1.716941747018e-10       9.648588617210e-15       2.059641889403e-13       0.000000000000e+00       7.789634715647e-11       8.505298427620e-12      -5.911075963750e-15 
   44       1.740987961800e-10       1.040908201607e-14       1.929045284680e-13       0.000000000000e+00       7.423617924448e-11       8.141974980002e-12      -6.883668205484e-15 
   45       1.765820465406e-10       1.120743172068e-14       1.785667429690e-13       0.000000000000e+00       7.080536874474e-11       7.784439784186e-12      -8.645041178953e-15 
   46       1.790913331694e-10       1.204331723780e-14       1.625910532710e-13       0.000000000000e+00       6.758438409720e-11       7.468563171096e-12      -1.026939175492e-14 
   47       1.816228858878e-10       1.291655031108e-14       1.448341184295e-13       0.000000000000e+00       6.455911681406e-11       7.185056841621e-12      -1.145086664658e-14 
   48       1.842009926241e-10       1.382702916741e-14       1.252354298929e-13       0.000000000000e+00       6.171248511410e-11       6.910257295641e-12      -1.212752479448e-14 
   49       1.867930183366e-10       1.477453937782e-14       1.037199394707e-13       0.000000000000e+00       5.903263647055e-11       6.638944716303e-12      -1.226898573561e-14 
   50       1.893643017052e-10       1.575901490955e-14       8.021626765192e-14       0.000000000000e+00       5.650591583234e-11       6.372536925524e-12      -1.186405203284e-14 
   51       1.919609427826e-10       1.678144371735e-14       5.469433610431e-14       0.000000000000e+00       5.412247975082e-11       6.120391238907e-12      -1.093663278280e-14 
   52       1.946327872565e-10       1.784296920008e-14       2.717741353554e-14       0.000000000000e+00       5.187099038486e-11       5.891184965046e-12      -9.566300175610e-15 
   53       1.973314115490e-10       1.894389367946e-14      -2.142671156718e-15       0.000000000000e+00       4.974323225645e-11       5.678438288003e-12      -8.004587467777e-15 
   54       2.000004073043e-10       2.008415339487e-14      -3.306213824521e-14       0.000000000000e+00       4.772981620210e-11       5.472771507262e-12      -6.549030184188e-15 
   55       2.026926169286e-10       2.126324241978e-14      -6.561203374568e-14       0.000000000000e+00       4.582380511179e-11       5.274600921934e-12      -5.390581020985e-15 
   56       2.054690831137e-10       2.248041874603e-14      -9.984494659557e-14       0.000000000000e+00       4.401730955693e-11       5.087003884398e-12      -4.673388052162e-15 
   57       2.082757902712e-10       2.373476770262e-14      -1.356060379585e-13       0.000000000000e+00       4.230444864484e-11       4.912746962166e-12      -4.421822055218e-15 
   58       2.110480846160e-10       2.502551197247e-14      -1.727351521789e-13       0.000000000000e+00       4.067857463654e-11       4.752735067628e-12      -4.620729181662e-15 
   59       2.138378046886e-10       2.635301787715e-14      -2.113537555209e-13       0.000000000000e+00       3.913465440345e-11       4.600111426712e-12      -5.238783328679e-15 
   60       2.167084906802e-10       2.771797751064e-14      -2.516410274568e-13       0.000000000000e+00       3.766703183389e-11       4.447473774627e-12      -6.198492355040e-15 
   61       2.196172270104e-10       2.912099218142e-14      -2.936384887886e-13       0.000000000000e+00       3.627140919748e-11       4.297125764184e-12      -7.264028777781e-15 
   62       2.225085956167e-10       3.056229724222e-14      -3.373581829157e-13       0.000000000000e+00       3.494298618925e-11       4.153651634599e-12      -8.176893588528e-15 
   63       2.254185372720e-10       3.204055566368e-14      -3.828451996962e-13       0.000000000000e+00       3.367806671936e-11       4.019123034534e-12      -8.844893865474e-15 
   64       2.283937081971e-10       3.355418715142e-14      -4.301434134347e-13       0.000000000000e+00       3.247254534211e-11       3.894092769830e-12      -9.229784145168e-15 
   65       2.314072514841e-10       3.510287178396e-14      -4.792419293046e-13       0.000000000000e+00       3.132326996410e-11       3.775495761570e-12      -9.341355639800e-15 
   66       2.344220882494e-10       3.668631722258e-14      -5.301121249027e-13       0.000000000000e+00       3.022672141663e-11       3.659831790632e-12      -9.211863733358e-15 
   67       2.374554334981e-10       3.830289034096e-14      -5.827219532003e-13       0.000000000000e+00       2.917999974566e-11       3.547216768220e-12      -8.903138296517e-15 
   68       2.405339823376e-10       3.995075902879e-14      -6.370337743420e-13       0.000000000000e+00       2.817997841435e-11       3.438650668917e-12      -8.495927214203e-15 
   69       2.436563512571e-10       4.162922160256e-14      -6.929998737492e-13       0.000000000000e+00       2.722463646273e-11       3.334699679627e-12      -8.096608547116e-15 
   70       2.468123444733e-10       4.333787536824e-14      -7.505656084515e-13       0.000000000000e+00       2.631148567315e-11       3.235788814670e-12      -7.828312690162e-15 
   71       2.499925865027e-10       4.507624041351e-14      -8.096796037817e-13       0.000000000000e+00       2.543754808310e-11       3.142066631521e-12      -7.798631409504e-15 
   72       2.531971720437e-10       4.684351598425e-14      -8.703231133847e-13       0.000000000000e+00       2.460117360051e-11       3.052629910954e-12      -8.005326923793e-15 
   73       2.564285588161e-10       4.863877892947e-14      -9.324861451568e-13       0.000000000000e+00       2.380048725729e-11       2.966142648852e-12      -8.413069875264e-15 
   74       2.596892252845e-10       5.046113855720e-14      -9.961644118763e-13       0.000000000000e+00       2.303321366239e-11       2.881546339935e-12      -8.972623476125e-15 
   75       2.629824044362e-10       5.231000485239e-14      -1.061377149820e-12       0.000000000000e+00       2.229795284138e-11       2.799634825745e-12      -9.593707736951e-15 
   76       2.663114548286e-10       5.418486986534e-14      -1.128152784821e-12       0.000000000000e+00       2.159307806148e-11       2.721760330077e-12      -1.016666304699e-14 
   77       2.696782600394e-10       5.608496482512e-14      -1.196496514454e-12       0.000000000000e+00       2.091666585798e-11       2.648903135260e-12      -1.059905690268e-14 
   78       2.730788338570e-10       5.800841096459e-14      -1.266302648007e-12       0.000000000000e+00       2.026757211219e-11       2.580177461615e-12      -1.090852895862e-14 
   79       2.765068959097e-10       5.995291753601e-14      -1.337426759332e-12       0.000000000000e+00       1.964450040933e-11       2.514059514337e-12      -1.114604124896e-14 
   80       2.799573483603e-10       6.191607950564e-14      -1.409737973906e-12       0.000000000000e+00       1.904591209038e-11       2.449222991456e-12      -1.134749607578e-14 
   81       2.834333420884e-10       6.389553357043e-14      -1.483203886998e-12       0.000000000000e+00       1.847082902686e-11       2.385811271041e-12      -1.146675444899e-14 
   82       2.869403695223e-10       6.588882219155e-14      -1.557819818345e-12       0.000000000000e+00       1.791813301438e-11       2.324374467134e-12      -1.143128418796e-14 
   83       2.904827424065e-10       6.789351194100e-14      -1.633565107032e-12       0.000000000000e+00       1.738652062748e-11       2.265394152236e-12      -1.120028194087e-14 
   84       2.940590873291e-10       6.990772969192e-14      -1.710344165082e-12       0.000000000000e+00       1.687517550681e-11       2.208978597867e-12      -1.088693708607e-14 
   85       2.976660925483e-10       7.192971125706e-14      -1.788035751612e-12       0.000000000000e+00       1.638318003266e-11       2.155116982188e-12      -1.065640744117e-14 
   86       3.013010210293e-10       7.395772923884e-14      -1.866543666926e-12       0.000000000000e+00       1.590946642833e-11       2.103682334597e-12      -1.063409486520e-14 
   87       3.049654859153e-10       7.599037595673e-14      -1.945902482530e-12       0.000000000000e+00       1.545334215072e-11       2.054153439555e-12      -1.072880758996e-14 
   88       3.086622464685e-10       7.802632641782e-14      -2.026188702841e-12       0.000000000000e+00       1.501402749081e-11       2.005845413950e-12      -1.078165431366e-14 
   89       3.123934473889e-10       8.006437823888e-14      -2.107467086555e-12       0.000000000000e+00       1.459061883821e-11       1.958222750915e-12      -1.066284211083e-14 
   90       3.161586483874e-10       8.210384524861e-14      -2.189720053424e-12       0.000000000000e+00       1.418250483665e-11       1.911636708684e-12      -1.041153874570e-14 
   91       3.199564757695e-10       8.414422836384e-14      -2.272907807181e-12       0.000000000000e+00       1.378899816724e-11       1.866699326726e-12      -1.011726459524e-14 
   92       3.237853809021e-10       8.618485759011e-14      -2.356979678196e-12       0.000000000000e+00       1.340932975568e-11       1.823899808494e-12      -9.857207943769e-15 
   93       3.276442018898e-10       8.822412310273e-14      -2.441842389786e-12       0.000000000000e+00       1.304305301535e-11       1.783091033646e-12      -9.630604247780e-15 
   94       3.315316622096e-10       9.026013264075e-14      -2.527386986248e-12       0.000000000000e+00       1.268968733340e-11       1.743926272217e-12      -9.414769572106e-15 
   95       3.354461859314e-10       9.229094412887e-14      -2.613498290786e-12       0.000000000000e+00       1.234858811895e-11       1.706012917952e-12      -9.184904043193e-15 
   96       3.393864632112e-10       9.431435710333e-14      -2.700058412629e-12       0.000000000000e+00       1.201906128276e-11       1.669003217604e-12      -8.921697262576e-15 
   97       3.433532653515e-10       9.632725273630e-14      -2.786958110951e-12       0.000000000000e+00       1.170073821976e-11       1.632884602291e-12      -8.635536832529e-15 
   98       3.473478749583e-10       9.832615664444e-14      -2.874086875829e-12       0.000000000000e+00       1.139324512563e-11       1.597729324421e-12      -8.345741341822e-15 
   99       3.513715290785e-10       1.003074357616e-13      -2.961329378441e-12       0.000000000000e+00       1.109608349417e-11       1.563605905236e-12      -8.073252932292e-15 
  100       3.554250015534e-10       1.022678651372e-13      -3.048584304138e-12       0.000000000000e+00       1.080871406174e-11       1.530568786875e-12      -7.836033733424e-15 
  101       3.595072914563e-10       1.042064253256e-13      -3.135824021244e-12       0.000000000000e+00       1.053083115002e-11       1.498626081215e-12      -7.634429628902e-15 
  102       3.636167427530e-10       1.061227528793e-13      -3.223043187021e-12       0.000000000000e+00       1.026211917367e-11       1.467766889918e-12      -7.463820341678e-15 
  103       3.677514331293e-10       1.080165969296e-13      -3.310240739491e-12       0.000000000000e+00       1.000216481096e-11       1.437970717175e-12      -7.319067159905e-15 
  104       3.719096223326e-10       1.098874461815e-13      -3.397402940817e-12       0.000000000000e+00       9.750524369578e-12       1.409194385616e-12      -7.195046319821e-15 
  105       3.760911849418e-10       1.117333442218e-13      -3.484449570786e-12       0.000000000000e+00       9.506943044695e-12       1.381331477655e-12      -7.088361360462e-15 
  106       3.802963557984e-10       1.135519206073e-13      -3.571280714878e-12       0.000000000000e+00       9.271159534476e-12       1.354246778188e-12      -6.995837065730e-15 
  107       3.845252865865e-10       1.153407531393e-13      -3.657793188783e-12       0.000000000000e+00       9.042835811723e-12       1.327788078815e-12      -6.913984855191e-15 
